# Lines beginning with `#' are comments and are ignored.
# Blank lines are significant: do not add or remove!
# _database_code_amcsd 0009325
#
# sg, abc, angles.
17	52.17 25.50 19.86    90 90 90
# ctl, extra.
0.25 0.75 0.875	0.5 1.0
# limits.
--

# rad/asf, n, limits, comb.
# rads: (1.6 1) -> (1.088 1.26).
Ru3+    8      --      --
# zooms.
1.6:0-0
# comb, bound.
#0@a1	0.1	0.1	0.14784
#1@e1	0.30624	0	0.25

# 2theta, fwhm, hkl, mult, val.
25.59	0.2	0 1 2	6	61.91
35.17	0.2	1 0 4	6	96.62
37.80	0.2	1 1 0	6	44.59
43.38	0.2	1 1 3	12	99.82
46.21	0.2	2 0 2	6	1.46
52.58	0.2	0 2 4	6	50.05
57.54	0.2	1 1 6	12	100.00
59.78	0.2	2 1 1	12	2.60
61.17	0.2	1 2 2	12	3.30
61.35	0.2	0 1 8	6	7.58
66.56	0.2	2 1 4	12	39.66
68.25	0.2	3 0 0	6	61.31
70.46	0.2	1 2 5	12	1.31
74.36	0.2	2 0 8	6	1.52
76.94	0.2	1 0 10	6	17.73
77.30	0.2	1 1 9	12	9.57
80.75	0.2	2 2 0	6	2.29
84.41	0.2	2 2 3	12	1.91
86.41	0.2	3 1 2	12	1.40
86.57	0.2	1 2 8	12	3.00
89.07	0.2	0 2 10	6	8.37

#spectrum
4	-0.002719643
4.01999998	0.010464155
4.03999996	-0.00487757
4.05999994	0.014183627
4.07999992	0.018874049
4.0999999	0.017340087
4.11999989	0.025003087
4.13999987	0.013630373
4.15999985	0.028172465
4.17999983	0.033975938
4.19999981	0.022065355
4.21999979	-0.013111429
4.23999977	0.008060008
4.26000023	0.011978499
4.28000021	0.012777309
4.30000019	0.021165429
4.32000017	0.013185471
4.34000015	0.008533069
4.36000013	-0.006906585
4.38000011	0.001112503
4.4000001	0.003495623
4.42000008	0.003245783
4.44000006	-0.004337833
4.46000004	-0.006837442
4.48000002	-0.005102828
4.5	0.01157129
4.51999998	-0.000890993
4.53999996	-0.006962499
4.55999994	0.001065315
4.57999992	0.005222152
4.5999999	0.008508267
4.61999989	0.002368309
4.63999987	-0.000354561
4.65999985	0.002055242
4.67999983	-0.003238143
4.69999981	0.023142255
4.71999979	0.146251643
4.73999977	0.23984012
4.76000023	0.054828706
4.78000021	0.035886076
4.80000019	0.038358792
4.82000017	0.026726978
4.84000015	0.147788007
4.86000013	0.100249024
4.88000011	-0.002902925
4.9000001	-0.017010826
4.92000008	-0.01140538
4.94000006	-0.020751455
4.96000004	-0.00824218
4.98000002	-0.005546803
5	0.005310364
5.01999998	-0.010763979
5.03999996	0.016846626
5.05999994	0.01538685
5.07999992	-0.001875748
5.0999999	0.036958939
5.11999989	0.046296029
5.13999987	-0.006390489
5.15999985	-0.001267574
5.17999983	-0.030777919
5.19999981	-0.025589672
5.21999979	-0.024220813
5.23999977	-0.023675774
5.26000023	-0.012827514
5.28000021	-0.027626355
5.30000019	-0.023563268
5.32000017	-0.036160691
5.34000015	-0.017485924
5.36000013	-0.027028068
5.38000011	-0.035685423
5.4000001	-0.018636055
5.42000008	-0.032801345
5.44000006	-0.019121406
5.46000004	-0.021678417
5.48000002	-0.013510697
5.5	-0.038272487
5.51999998	-0.018929034
5.53999996	-0.006838213
5.55999994	-0.019547814
5.57999992	-0.024104598
5.5999999	0.006025049
5.61999989	0.020767154
5.63999987	0.061634424
5.65999985	0.054586272
5.67999983	0.080509125
5.69999981	0.067074272
5.71999979	0.009573098
5.73999977	0.011574712
5.76000023	0.011021811
5.78000021	0.035731867
5.80000019	0.067301072
5.82000017	0.200311057
5.84000015	0.39752709
5.86000013	0.358081733
5.88000011	0.372997273
5.9000001	0.433713302
5.92000008	0.270176675
5.94000006	0.091666376
5.96000004	0.031281881
5.98000002	0.027393952
6	0.011097747
6.01999998	0.007643043
6.03999996	0.020452834
6.05999994	0.010580619
6.07999992	0.005416065
6.0999999	0.001534627
6.11999989	-0.002776314
6.13999987	0.010457494
6.15999985	0.007425307
6.17999983	0.006101442
6.19999981	-0.008065951
6.21999979	-0.004263269
6.23999977	-0.0004661
6.26000023	0.001613057
6.28000021	-0.006157929
6.30000019	-0.004948724
6.32000017	0.00695205
6.34000015	-0.008973922
6.36000013	-8.62011E-05
6.38000011	0.008792142
6.4000001	0.007817221
6.42000008	0.007259971
6.44000006	-0.004007396
6.46000004	0.011248533
6.48000002	-0.010740952
6.5	0.009627143
6.51999998	-0.016666374
6.53999996	-0.00916252
6.55999994	-0.011943078
6.57999992	-0.006177442
6.5999999	-0.007701007
6.61999989	-0.005386691
6.63999987	0.005472984
6.65999985	0.000483183
6.67999983	0.011741799
6.69999981	0.005866583
6.71999979	-0.001735567
6.73999977	-0.002933304
6.76000023	0.00997678
6.78000021	0.006180315
6.80000019	0.001512254
6.82000017	0.002392105
6.84000015	0.01523942
6.86000013	0.006244039
6.88000011	0.008787976
6.9000001	0.002756357
6.92000008	0.013827616
6.94000006	0.017179192
6.96000004	0.005963455
6.98000002	0.013990445
7	0.013441788
7.01999998	0.012449039
7.03999996	0.002880709
7.05999994	0.024538516
7.07999992	0.031629206
7.0999999	0.004465973
7.11999989	0.004677322
7.13999987	0.003161045
7.15999985	0.004624961
7.17999983	0.000509696
7.19999981	-0.007900719
7.21999979	-0.007766898
7.23999977	-0.002512473
7.26000023	-0.003264682
7.28000021	0.003243877
7.30000019	0.016157422
7.32000017	-0.001757705
7.34000015	-0.003852038
7.36000013	-0.002536675
7.38000011	0.001332642
7.4000001	0.01845549
7.42000008	0.008602422
7.44000006	0.006439637
7.46000004	0.013251271
7.48000002	0.011490575
7.5	0.009717302
7.51999998	-0.00276772
7.53999996	-0.003281544
7.55999994	0.001756438
7.57999992	0.001219131
7.5999999	0.004522238
7.61999989	0.005246379
7.63999987	-3.19727E-05
7.65999985	-0.004464954
7.67999983	-0.009336228
7.69999981	-0.004802104
7.71999979	-0.006697378
7.73999977	-0.002182532
7.76000023	0.002323093
7.78000021	-0.019714704
7.80000019	-0.008807071
7.82000017	-0.004327476
7.84000015	0.016407066
7.86000013	0.011455272
7.88000011	0.001360213
7.9000001	-0.004462368
7.92000008	-0.009435986
7.94000006	0.000562828
7.96000004	-0.00827572
7.98000002	-0.010272802
8	-0.013559675
8.02000046	-0.013428336
8.03999996	-0.006882684
8.06000042	-0.013181331
8.07999992	-0.005361536
8.10000038	-0.007817653
8.11999989	0.001705331
8.14000034	-0.016166055
8.15999985	-0.007078661
8.18000031	0.004573149
8.19999981	-0.001325158
8.22000027	-0.000378762
8.23999977	0.009124526
8.26000023	0.006214156
8.27999973	0.006297497
8.30000019	0.001671229
8.31999969	0.010738562
8.34000015	0.023656274
8.35999966	0.043848454
8.38000011	0.156910325
8.39999962	0.150994451
8.42000008	0.089013382
8.43999958	0.039443397
8.46000004	0.003140657
8.47999954	0.004072007
8.5	0.010567466
8.52000046	0.0085041
8.53999996	0.003873771
8.56000042	-0.003323351
8.57999992	0.010879593
8.60000038	0.000689412
8.61999989	0.01789133
8.64000034	0.032955214
8.65999985	0.0249105
8.68000031	0.037838778
8.69999981	0.042209955
8.72000027	0.055143196
8.73999977	0.058663752
8.76000023	0.090861506
8.77999973	0.207373457
8.80000019	0.373961706
8.81999969	0.613737083
8.84000015	0.806438689
8.85999966	0.999999902
8.88000011	0.980005266
8.89999962	0.619346291
8.92000008	0.279662149
8.93999958	0.132571012
8.96000004	0.082206541
8.97999954	0.04382979
9	0.040551499
9.02000046	0.039845682
9.03999996	0.042568382
9.06000042	0.046579826
9.07999992	0.017214103
9.10000038	0.013103919
9.11999989	0.005147039
9.14000034	-0.004516609
9.15999985	0.002516039
9.18000031	-0.002429329
9.19999981	0.005897916
9.22000027	0.007382977
9.23999977	-0.004393681
9.26000023	0.006517871
9.27999973	-0.005247633
9.30000019	-0.005452178
9.31999969	-0.00522304
9.34000015	0.009135
9.35999966	0.008947657
9.38000011	0.004486347
9.39999962	-0.011524455
9.42000008	-0.007842546
9.43999958	-0.016138066
9.46000004	-0.013300353
9.47999954	-0.001469245
9.5	-0.016166695
9.52000046	0.000383961
9.53999996	0.001533451
9.56000042	0.003972785
9.57999992	-0.005993233
9.60000038	0.012293029
9.61999989	0.001054918
9.64000034	0.005229805
9.65999985	-0.008564376
9.68000031	0.003325807
9.69999981	-0.007888807
9.72000027	-0.007970267
9.73999977	-0.002482238
9.76000023	-0.001268201
9.77999973	-0.006468044
9.80000019	-0.006098516
9.81999969	-0.00743522
9.84000015	-0.003202618
9.85999966	0.002319501
9.88000011	-0.004136149
9.89999962	-0.014438077
9.92000008	0.012499297
9.93999958	6.83468E-05
9.96000004	5.40323E-05
9.97999954	-0.005090682
10	-0.003810531
10.0200005	-0.006804947
10.04	4.92E-05
10.0600004	-0.008498693
10.0799999	0.016340482
10.1000004	0.031341177
10.1199999	0.050626496
10.1400003	0.075480299
10.1599998	0.047269931
10.1800003	0.013928537
10.1999998	-0.006996979
10.2200003	-9.95753E-05
10.2399998	-0.00132922
10.2600002	0.029971625
10.2799997	0.030462566
10.3000002	0.040373206
10.3199997	0.010058345
10.3400002	0.001574305
10.3599997	0.002509731
10.3800001	-0.01281397
10.3999996	0.006104197
10.4200001	-0.013491628
10.4399996	0.005861985
10.46	0.000396656
10.4799995	7.05543E-05
10.5	0.006595517
10.5200005	0.001140544
10.54	-0.004739125
10.5600004	-0.011899495
10.5799999	-0.000225834
10.6000004	-0.001388373
10.6199999	-0.007255687
10.6400003	-0.004560611
10.6599998	-0.001006789
10.6800003	0.007685464
10.6999998	0.001829199
10.7200003	0.016090316
10.7399998	0.0012516
10.7600002	0.006530122
10.7799997	0.004107402
10.8000002	-0.001736886
10.8199997	0.003548336
10.8400002	0.007123747
10.8599997	-0.002138113
10.8800001	0.011712621
10.8999996	0.002454536
10.9200001	0.021872552
10.9399996	0.040436303
10.96	0.03075531
10.9799995	0.015940156
11	0.008830032
11.0200005	0.006429032
11.04	0.015156693
11.0600004	0.007622551
11.0799999	-0.003762193
11.1000004	0.002829132
11.1199999	0.005997687
11.1400003	0.019010664
11.1599998	0.017901348
11.1800003	0.012085141
11.1999998	0.035372017
11.2200003	0.032125149
11.2399998	0.042146153
11.2600002	0.049599894
11.2799997	0.0181084
11.3000002	0.021711356
11.3199997	0.015043286
11.3400002	0.004523792
11.3599997	0.024390825
11.3800001	0.009592114
11.3999996	0.01533637
11.4200001	0.020652781
11.4399996	0.007566337
11.46	0.011170939
11.4799995	0.017343366
11.5	0.017096099
11.5200005	0.022840355
11.54	0.020452899
11.5600004	0.015925371
11.5799999	0.007545792
11.6000004	0.015428984
11.6199999	0.005336851
11.6400003	0.001236019
11.6599998	0.017249576
11.6800003	0.005872264
11.6999998	0.019317017
11.7200003	0.021633893
11.7399998	0.025662108
11.7600002	0.027549845
11.7799997	0.061963058
11.8000002	0.087388139
11.8199997	0.130787486
11.8400002	0.165626624
11.8599997	0.241550623
11.8800001	0.161690892
11.8999996	0.105796976
11.9200001	0.066593283
11.9399996	0.039372047
11.96	0.031408845
11.9799995	0.027724507
12	0.031742848
12.0200005	0.030196584
12.04	0.023941652
12.0600004	0.024961358
12.0799999	0.028975938
12.1000004	0.023146108
12.1199999	0.006615918
12.1400003	0.017047174
12.1599998	0.027905386
12.1800003	0.018647771
12.1999998	0.018804565
12.2200003	0.042926952
12.2399998	0.044365621
12.2600002	0.041095519
12.2799997	0.048095777
12.3000002	0.036264093
12.3199997	0.023575402
12.3400002	0.031428475
12.3599997	0.01616983
12.3800001	0.002194065
12.3999996	0.01517968
12.4200001	0.006765516
12.4399996	0.010333587
12.46	0.006625061
12.4799995	0.002059539
12.5	0.012900106
12.5200005	0.005764683
12.54	-0.002655685
12.5600004	0.007325889
12.5799999	0.018162393
12.6000004	0.009739035
12.6199999	0.025709283
12.6400003	0.009580412
12.6599998	0.009713645
12.6800003	-0.002993332
12.6999998	0.009549288
12.7200003	0.010963626
12.7399998	-0.000890183
12.7600002	0.01678541
12.7799997	0.018625019
12.8000002	0.026027443
12.8199997	0.04198851
12.8400002	0.037833893
12.8599997	0.05892899
12.8800001	0.014115097
12.8999996	0.013381852
12.9200001	0.009224023
12.9399996	0.011913038
12.96	0.01545726
12.9799995	0.010441247
13	0.035382792
13.0200005	0.009394583
13.04	0.002236604
13.0600004	0.023752323
13.0799999	0.002897832
13.1000004	0.012001003
13.1199999	0.018107734
13.1400003	0.026781742
13.1599998	0.024755782
13.1800003	0.03514058
13.1999998	0.053228383
13.2200003	0.025950307
13.2399998	0.01322289
13.2600002	0.008626545
13.2799997	0.013445184
13.3000002	0.013555665
13.3199997	0.001254434
13.3400002	0.007355745
13.3599997	0.017736429
13.3800001	0.007145964
13.3999996	0.023089607
13.4200001	0.010786561
13.4399996	0.010466507
13.46	0.007578301
13.4799995	0.014533264
13.5	0.001373118
13.5200005	0.001907943
13.54	-0.000553293
13.5600004	-0.010718292
13.5799999	0.001799199
13.6000004	0.005329041
13.6199999	0.016134279
13.6400003	0.014956079
13.6599998	0.011209873
13.6800003	0.007035587
13.6999998	0.007996885
13.7200003	0.011097981
13.7399998	-0.002492059
13.7600002	0.016871937
13.7799997	-0.004421775
13.8000002	0.020505808
13.8199997	-0.001215958
13.8400002	0.009160404
13.8599997	0.004985595
13.8800001	0.026917273
13.8999996	0.017178787
13.9200001	0.030550988
13.9399996	0.031939909
13.96	0.022629489
13.9799995	0.009039343
14	0.017703973
14.0200005	0.015669276
14.04	0.017486407
14.0600004	0.026579196
14.0799999	0.001006058
14.1000004	0.000683535
14.1199999	0.014484286
14.1400003	-0.004668989
14.1599998	-0.008843027
14.1800003	0.014373426
14.1999998	0.003779942
14.2200003	0.004313893
14.2399998	0.0091277
14.2600002	0.012229697
14.2799997	0.001208604
14.3000002	0.015010177
14.3199997	0.020252325
14.3400002	0.019502911
14.3599997	0.012761936
14.3800001	-0.006818216
14.3999996	0.004415923
14.4200001	-0.001040891
14.4399996	0.012761257
14.46	0.009872424
14.4799995	0.01211936
14.5	0.000243165
14.5200005	0.009337808
14.54	0.005593234
14.5600004	0.013404017
14.5799999	0.013511258
14.6000004	0.014046502
14.6199999	0.011157943
14.6400003	0.01383305
14.6599998	-0.005318592
14.6800003	0.005487991
14.6999998	0.006879093
14.7200003	0.012121907
14.7399998	0.001101597
14.7600002	0.000780603
14.7799997	0.009019008
14.8000002	0.016829333
14.8199997	0.0182199
14.8400002	0.011906783
14.8599997	0.028276207
14.8800001	0.024102639
14.8999996	0.029344342
14.9200001	0.025170396
14.9399996	0.009868872
14.96	0.006122443
14.9799995	0.004087667
15	0.014463885
15.0200005	-0.002550585
15.04	0.010820858
15.0600004	0.009640818
15.0799999	0.011028263
15.1000004	0.013271306
15.1199999	0.02236156
15.1400003	-0.001502693
15.1599998	-0.003968632
15.1800003	0.008116143
15.1999998	0.003937377
15.2200003	0.006605718
15.2399998	0.001569983
15.2600002	-0.004322252
15.2799997	0.012467631
15.3000002	0.00486234
15.3199997	0.008811766
15.3400002	0.011904601
15.3599997	0.005581323
15.3800001	0.017232316
15.3999996	0.001920161
15.4200001	-0.000553463
15.4399996	0.00253582
15.46	0.009048134
15.4799995	0.001864431
15.5	0.018646504
15.5200005	0.012317067
15.54	-0.000860861
15.5600004	0.000939442
15.5799999	0.009158432
15.6000004	0.002825318
15.6199999	0.022597705
15.6400003	0.005135252
15.6599998	0.012922296
15.6800003	0.014288662
15.6999998	-0.001465065
15.7200003	0.006746715
15.7399998	0.026084715
15.7600002	0.033438259
15.7799997	0.035226945
15.8000002	0.025459091
15.8199997	0.01569001
15.8400002	0.032882113
15.8599997	0.024394423
15.8800001	0.01718936
15.8999996	0.021538301
15.9200001	0.028453742
15.9399996	0.031088053
15.96	0.024733493
15.9799995	0.022229281
16	0.007312357
16.0200005	0.01721652
16.0400009	0.009144241
16.0599995	0.006206143
16.0799999	0.004978424
16.1000004	0.004177121
16.1200008	-0.00261741
16.1399994	0.002997733
16.1599998	0.006899369
16.1800003	0.009087466
16.2000008	0.0181215
16.2199993	0.010890799
16.2399998	-0.001905278
16.2600002	-0.00100786
16.2800007	0.002027697
16.2999992	0.003777565
16.3199997	0.00295782
16.3400002	0.005988061
16.3600006	0.019287898
16.3799992	0.001771693
16.3999996	0.006936338
16.4200001	0.012955079
16.4400005	0.010840423
16.4599991	0.012147675
16.4799995	0.00574948
16.5	0.00277318
16.5200005	0.002362791
16.5400009	0.006658196
16.5599995	0.014803425
16.5799999	0.007111607
16.6000004	0.008833264
16.6200008	0.013120794
16.6399994	0.005850988
16.6599998	-0.001848797
16.6800003	0.012276141
16.7000008	0.01612765
16.7199993	-0.002277589
16.7399998	-0.000998006
16.7600002	0.001563452
16.7800007	-0.001868793
16.7999992	0.000260582
16.8199997	0.007523596
16.8400002	0.019920235
16.8600006	0.016051747
16.8799992	0.000625859
16.8999996	-0.000250963
16.9200001	0.000154065
16.9400005	0.01296829
16.9599991	0.004381672
16.9799995	0.021043501
17	0.01716043
17.0200005	0.013703258
17.0400009	0.012383873
17.0599995	0.012774318
17.0799999	0.026429905
17.1000004	0.00627338
17.1200008	0.012221266
17.1399994	0.00618379
17.1599998	0.020259077
17.1800003	0.018925201
17.2000008	0.027860679
17.2199993	0.022670937
17.2399998	0.024326755
17.2600002	0.004581789
17.2800007	0.016076987
17.2999992	0.029710063
17.3199997	0.02065845
17.3400002	0.018880416
17.3600006	0.003405203
17.3799992	0.005047039
17.3999996	0.005402991
17.4200001	0.026299806
17.4400005	0.008248945
17.4599991	0.006031273
17.4799995	-0.002179973
17.5	0.022988967
17.5200005	0.009638278
17.5400009	0.004417256
17.5599995	0.012889618
17.5799999	0.009376847
17.6000004	0.002866453
17.6200008	0.002345923
17.6399994	0.012951004
17.6599998	0.014994818
17.6800003	0.010189318
17.7000008	0.007949958
17.7199993	0.028819593
17.7399998	0.015449535
17.7600002	0.019196858
17.7800007	0.022514587
17.7999992	0.024546809
17.8199997	0.031713154
17.8400002	0.056424934
17.8600006	0.09354648
17.8799992	0.090008899
17.8999996	0.054371697
17.9200001	0.04227168
17.9400005	0.043009509
17.9599991	0.027910871
17.9799995	0.025650118
18	0.022104093
18.0200005	0.02540438
18.0400009	0.015008166
18.0599995	0.026437447
18.0799999	0.030589909
18.1000004	0.015482298
18.1200008	0.020060371
18.1399994	0.014793904
18.1599998	0.01166619
18.1800003	0.020092723
18.2000008	0.011399215
18.2199993	0.019395722
18.2399998	0.005564513
18.2600002	0.019550727
18.2800007	0.009569415
18.2999992	0.003011029
18.3199997	0.01057495
18.3400002	0.019421987
18.3600006	0.010293255
18.3799992	0.01357506
18.3999996	0.024987649
18.4200001	0.023988279
18.4400005	0.004585295
18.4599991	0.016851876
18.4799995	0.013710723
18.5	0.018700549
18.5200005	0.017270212
18.5400009	0.001288222
18.5599995	-0.000143068
18.5799999	0.00655674
18.6000004	0.018391858
18.6200008	0.015675441
18.6399994	0.021090251
18.6599998	0.026504749
18.6800003	0.016511865
18.7000008	0.024065742
18.7199993	0.016212342
18.7399998	0.006646859
18.7600002	-0.000350904
18.7800007	0.008914286
18.7999992	0.005768157
18.8199997	0.000482112
18.8400002	0.009747211
18.8600006	0.007457032
18.8799992	0.008162757
18.8999996	0.005872734
18.9200001	0.027977429
18.9400005	0.014132389
18.9599991	0.011414901
18.9799995	0.006557745
19	0.014112145
19.0200005	0.013107315
19.0400009	0.010818886
19.0599995	0.025649844
19.0799999	0.028069873
19.1000004	0.015083213
19.1200008	0.025207658
19.1399994	0.036188524
19.1599998	0.01378782
19.1800003	0.01835009
19.2000008	0.003226048
19.2199993	0.0244805
19.2399998	0.008929685
19.2600002	0.027189564
19.2800007	0.017203733
19.2999992	0.02390964
19.3199997	0.019060922
19.3400002	0.035611721
19.3600006	0.020065151
19.3799992	0.007515204
19.3999996	0.010373187
19.4200001	0.014515932
19.4400005	0.013523849
19.4599991	0.012532667
19.4799995	0.00597871
19.5	0.019540513
19.5200005	0.021547953
19.5400009	0.001301662
19.5599995	0.016578331
19.5799999	0.013025098
19.6000004	0.018460375
19.6200008	0.016621144
19.6399994	0.019062737
19.6599998	0.002246543
19.6800003	0.015389723
19.7000008	0.022114411
19.7199993	0.019424795
19.7399998	0.02657977
19.7600002	0.004633594
19.7800007	0.016926636
19.7999992	0.009534033
19.8199997	0.027393182
19.8400002	0.024710748
19.8600006	0.010902214
19.8799992	0.006510387
19.8999996	0.019666811
19.9200001	0.008857903
19.9400005	0.016025247
19.9599991	0.008214765
19.9799995	0.016668633
20	0.023839895
20.0200005	0.022452986
20.0400009	0.024919172
20.0599995	0.011979596
20.0799999	0.00760087
20.1000004	0.004079426
20.1200008	0.028377728
20.1399994	0.011591783
20.1599998	0.035892815
20.1800003	0.01226197
20.2000008	0.022870512
20.2199993	0.009513828
20.2399998	0.007713819
20.2600002	0.022606215
20.2800007	0.010537544
20.2999992	0.021580905
20.3199997	0.012938766
20.3400002	0.023984857
20.3600006	0.023904938
20.3799992	0.023398415
20.3999996	0.019897425
20.4200001	0.02495727
20.4400005	0.017179218
20.4599991	0.023953655
20.4799995	0.029873473
20.5	0.025523219
20.5200005	0.016466557
20.5400009	0.018966532
20.5599995	0.022323762
20.5799999	0.012843031
20.6000004	0.016202834
20.6200008	0.010576439
20.6399994	0.006235236
20.6599998	0.027573799
20.6800003	0.019811289
20.7000008	0.015473822
20.7199993	0.014133395
20.7399998	0.028201277
20.7600002	0.011456134
20.7800007	0.027238294
20.7999992	0.029754385
20.8199997	0.017720469
20.8400002	0.015531106
20.8600006	0.022330358
20.8799992	0.021427167
20.8999996	0.024376824
20.9200001	0.026471614
20.9400005	0.030707325
20.9599991	0.025528626
20.9799995	0.013503344
21	0.013890334
21.0200005	0.014278317
21.0400009	0.012099416
21.0599995	0.017197033
21.0799999	0.021439627
21.1000004	0.020975408
21.1200008	0.004676982
21.1399994	0.023901373
21.1599998	0.016164174
21.1800003	0.009711725
21.2000008	0.017811229
21.2199993	0.017352025
21.2399998	0.027164984
21.2600002	0.022427531
21.2800007	0.010415217
21.2999992	0.019802368
21.3199997	0.034325902
21.3400002	0.028735254
21.3600006	0.020577381
21.3799992	0.022263552
21.3999996	0.034649691
21.4200001	0.028205496
21.4400005	0.014058283
21.4599991	0.03243772
21.4799995	0.006736208
21.5	0.014845207
21.5200005	0.014395159
21.5400009	0.02122112
21.5599995	0.013496343
21.5799999	0.025030842
21.6000004	0.018590734
21.6200008	0.020710484
21.6399994	0.018550808
21.6599998	0.026234848
21.6800003	0.017656119
21.7000008	0.022344882
21.7199993	0.035165396
21.7399998	0.024447496
21.7600002	0.02100537
21.7800007	0.023127091
21.7999992	0.030384672
21.8199997	0.02779894
21.8400002	0.020933574
21.8600006	0.021343878
21.8799992	0.026034
21.8999996	0.021308719
21.9200001	0.03241856
21.9400005	0.016993951
21.9599991	0.016976437
21.9799995	0.01567497
22	0.030636522
22.0200005	0.030190915
22.0400009	0.03830472
22.0599995	0.016460184
22.0799999	0.031421396
22.1000004	0.023699793
22.1200008	0.018973885
22.1399994	0.030938853
22.1599998	0.019792978
22.1800003	0.029189729
22.2000008	0.036018433
22.2199993	0.030007673
22.2399998	0.023140726
22.2600002	0.021409248
22.2800007	0.023957273
22.2999992	0.020085408
22.3199997	0.021776947
22.3400002	0.020900348
22.3600006	0.008896106
22.3799992	0.020858175
22.3999996	0.023404489
22.4200001	0.019102873
22.4400005	0.026356248
22.4599991	0.021198029
22.4799995	0.028878726
22.5	0.025859691
22.5200005	0.027120055
22.5400009	0.018964625
22.5599995	0.027499862
22.5799999	0.026191304
22.6000004	0.025738343
22.6200008	0.019293351
22.6399994	0.023975362
22.6599998	0.018813564
22.6800003	0.033338273
22.7000008	0.019616239
22.7199993	0.026864625
22.7399998	0.028121006
22.7600002	0.019105616
22.7800007	0.022929116
22.7999992	0.016052897
22.8199997	0.01645189
22.8400002	0.025838036
22.8600006	0.023240524
22.8799992	0.024494475
22.8999996	0.021040359
22.9200001	0.01073834
22.9400005	0.008995511
22.9599991	0.027367217
22.9799995	0.020060123
23	0.022596184
23.0200005	0.01571653
23.0400009	0.023815746
23.0599995	0.019075472
23.0799999	0.01005521
23.1000004	0.028425152
23.1200008	0.022400312
23.1399994	0.021083016
23.1599998	0.027469104
23.1800003	0.0120283
23.2000008	0.029541456
23.2199993	0.013672428
23.2399998	0.010642553
23.2600002	0.01018045
23.2800007	0.020417661
23.2999992	0.012679889
23.3199997	0.01735337
23.3400002	0.015179236
23.3600006	0.022420595
23.3799992	0.031373894
23.3999996	0.03219573
23.4200001	0.020178401
23.4400005	0.022712333
23.4599991	0.011979191
23.4799995	0.030348507
23.5	0.030315084
23.5200005	0.013590838
23.5400009	0.022117376
23.5599995	0.019088846
23.5799999	0.008785011
23.6000004	0.02843978
23.6200008	0.003157493
23.6399994	0.006121934
23.6599998	0.022354011
23.6800003	0.01205207
23.7000008	0.015873755
23.7199993	0.013276295
23.7399998	0.028226354
23.7600002	0.021350213
23.7800007	0.011050832
23.7999992	0.016587161
23.8199997	0.008856885
23.8400002	0.031513514
23.8600006	0.029348274
23.8799992	0.022476038
23.8999996	0.020312287
23.9200001	0.013441593
23.9400005	0.016843125
23.9599991	0.013825879
23.9799995	0.011237483
24	-0.004189254
24.0200005	0.033881849
24.0400009	0.027872472
24.0599995	0.012448648
24.0799999	0.017140689
24.1000004	0.03681292
24.1200008	0.014544678
24.1399994	0.010680494
24.1599998	0.022224566
24.1800003	0.026494248
24.2000008	0.000806868
24.2199993	0.017490273
24.2399998	0.029039243
24.2600002	0.015338982
24.2800007	0.000784077
24.2999992	0.017900708
24.3199997	0.016615777
24.3400002	0.008056664
24.3600006	0.015762047
24.3799992	0.007633809
24.3999996	0.013630242
24.4200001	0.025191842
24.4400005	0.017068123
24.4599991	0.019645352
24.4799995	0.019228322
24.5	0.017528972
24.5200005	0.02139492
24.5400009	-0.001699924
24.5599995	0.003453254
24.5799999	0.014171794
24.6000004	0.024892045
24.6200008	0.006939668
24.6399994	0.00610805
24.6599998	0.008701984
24.6800003	0.007873879
24.7000008	0.004479726
24.7199993	0.024198022
24.7399998	0.010108093
24.7600002	0.018702665
24.7800007	0.003332468
24.7999992	0.011074786
24.8199997	0.007263615
24.8400002	0.02228522
24.8600006	0.015909947
24.8799992	0.002688937
24.8999996	0.015148321
24.9200001	0.013914392
24.9400005	0.017818046
24.9599991	0.017015854
24.9799995	0.005944164
25	0.013277301
25.0200005	0.003493311
25.0400009	0.005266532
25.0599995	0.015601138
25.0799999	-0.000168863
25.1000004	0.007173665
25.1200008	0.01366211
25.1399994	0.012876819
25.1599998	-0.002457788
25.1800003	0.009599846
25.2000008	0.009676004
25.2199993	0.01959738
25.2399998	0.009405724
25.2600002	0.012055088
25.2800007	0.002722895
25.2999992	0.007943584
25.3199997	0.014021947
25.3400002	0.009402616
25.3600006	0.005640906
25.3799992	0.013864134
25.3999996	-0.001877629
25.4200001	0.0080607
25.4400005	0.010725018
25.4599991	0.009111099
25.4799995	0.001507043
25.5	0.005459779
25.5200005	0.009841915
25.5400009	-0.009313188
25.5599995	0.010906772
25.5799999	0.016576908
25.6000004	0.011976906
25.6200008	0.012085885
25.6399994	0.021183532
25.6599998	0.010167506
25.6800003	0.014987673
25.7000008	-0.008437464
25.7199993	0.010507961
25.7399998	0.02645854
25.7600002	0.016731521
25.7800007	0.000157774
25.7999992	0.026382344
25.8199997	0.016229818
25.8400002	0.012497626
25.8600006	0.024601169
25.8799992	0.01017085
25.8999996	0.016711865
25.9200001	0.003566517
25.9400005	0.004972756
25.9599991	0.01365494
25.9799995	0.02918504
26	0.005341671
26.0200005	0.013596637
26.0400009	0.010724378
26.0599995	0.021547365
26.0799999	0.017819209
26.1000004	0.020082653
26.1200008	0.019778102
26.1399994	0.003210284
26.1599998	0.01146478
26.1800003	0.015439198
26.2000008	0.015561433
26.2199993	0.007979645
26.2399998	0.008100888
26.2600002	0.01207332
26.2800007	0.016473049
26.2999992	0.013168479
26.3199997	0.022274406
26.3400002	0.000993219
26.3600006	0.005389591
26.3799992	0.02733194
26.3999996	0.002195946
26.4200001	0.010012906
26.4400005	0.013120924
26.4599991	0.018795501
26.4799995	-0.002921667
26.5	-0.003669475
26.5200005	0.018691916
26.5400009	0.002106022
26.5599995	0.024464239
26.5799999	0.006591142
26.6000004	0.020814448
26.6200008	0.009785414
26.6399994	0.021865186
26.6599998	0.01682403
26.6800003	0.019912445
26.7000008	0.017007155
26.7199993	0.008108124
26.7399998	0.005626591
26.7600002	0.010846405
26.7800007	0.007932444
26.7999992	0.013575687
26.8199997	0.008945176
26.8400002	0.006880111
26.8600006	0.026639353
26.8799992	0.017721762
26.8999996	0.017361141
26.9200001	0.007154544
26.9400005	0.005504839
26.9599991	0.002996532
26.9799995	0.015892667
27	0.028786112
27.0200005	0.008722724
27.0400009	0.036161828
27.0599995	0.013525051
27.0799999	0.020415768
27.1000004	0.014036432
27.1200008	0.023061382
27.1399994	0.007260911
27.1599998	0.019275981
27.1800003	0.01074538
27.2000008	0.014195225
27.2199993	0.007798766
27.2399998	0.007391101
27.2600002	0.022387695
27.2800007	0.016410657
27.2999992	0.022842079
27.3199997	0.01386356
27.3400002	0.024569117
27.3600006	0.010449344
27.3799992	0.013873799
27.3999996	0.022859228
27.4200001	0.024566401
27.4400005	0.020279269
27.4599991	-0.003697307
27.4799995	0.01212525
27.5	0.014678068
27.5200005	0.003533238
27.5400009	0.019348442
27.5599995	0.017186362
27.5799999	0.013738098
27.6000004	0.019703067
27.6200008	0.008118951
27.6399994	0.014079754
27.6599998	0.018326698
27.6800003	0.004596789
27.7000008	0.019967405
27.7199993	0.00495007
27.7399998	-0.001937343
27.7600002	0.017708205
27.7800007	0.025797012
27.7999992	0.022329196
27.8199997	0.007732836
27.8400002	0.002122884
27.8600006	0.008495284
27.8799992	0.020858514
27.8999996	0.011822253
27.9200001	0.007921133
27.9400005	0.016858811
27.9599991	0.007821218
27.9799995	0.002635232
28	-0.013678162
28.0200005	0.021793561
28.0400009	0.021315615
28.0599995	0.010566656
28.0799999	0.001958122
28.1000004	0.025020458
28.1200008	0.016841454
28.1399994	0.01080333
28.1599998	0.007334221
28.1800003	0.020129489
28.2000008	0.017947113
28.2199993	0.000359262
28.2399998	-0.000107777
28.2600002	0.007986646
28.2800007	0.016083185
28.2999992	0.004067175
28.3199997	0.009172602
28.3400002	0.016420492
28.3600006	-0.000723449
28.3799992	0.02664493
28.3999996	0.024914052
28.4200001	0.006923316
28.4400005	0.003059106
28.4599991	0.01931323
28.4799995	0.004756757
28.5	0.017166497
28.5200005	0.01674086
28.5400009	0.006903791
28.5599995	0.018897597
28.5799999	0.017200429
28.6000004	0.006092155
28.6200008	0.025374562
28.6399994	0.003575868
28.6599998	0.009172211
28.6800003	0.017769042
28.7000008	0.01609921
28.7199993	0.015290109
28.7399998	-6.533E-05
28.7600002	0.009406638
28.7800007	0.012463824
28.7999992	0.003970512
28.8199997	-0.004090005
28.8400002	0.020808374
28.8600006	0.004625849
28.8799992	0.006422945
28.8999996	0.011648427
28.9200001	0.009602798
28.9400005	0.012697194
28.9599991	0.013227905
28.9799995	0.012906689
29	0.020292827
29.0200005	0.007567709
29.0400009	0.02523216
29.0599995	0.005237825
29.0799999	0.004077166
29.1000004	0.016186129
29.1200008	0.019309651
29.1399994	0.002319945
29.1599998	0.006730213
29.1800003	0.014565001
29.2000008	0.008276817
29.2199993	0.005840056
29.2399998	0.018809476
29.2600002	0.020222011
29.2800007	0.022060275
29.2999992	0.016192007
29.3199997	0.006040265
29.3400002	0.015998812
29.3600006	0.013540658
29.3799992	0.018351735
29.3999996	0.010316242
29.4200001	0.021531274
29.4400005	0.023321409
29.4599991	0.00627003
29.4799995	0.01274548
29.5	0.002944772
29.5200005	0.005112924
29.5400009	0.013684823
29.5599995	0.010684034
29.5799999	-0.00132316
29.6000004	-0.00693131
29.6200008	0.008837006
29.6399994	0.001898539
29.6599998	0.018044729
29.6800003	0.008056442
29.7000008	0.018580913
29.7199993	0.007674441
29.7399998	0.007004868
29.7600002	0.003302637
29.7800007	0.005552746
29.7999992	-0.00550621
29.8199997	0.006072943
29.8400002	0.005621445
29.8600006	0.005975653
29.8799992	0.034950977
29.8999996	0.017648518
29.9200001	-0.001853532
29.9400005	0.007255661
29.9599991	0.009022717
29.9799995	-0.007683558

# vim:ts=8:sw=8
